# time	fraction	energy
0.000000000000000000e+00	8.214174263100689974e-03	3.579809478015085311e+00
1.000000000000000056e-01	8.205027223394931180e-03	3.577696619091880859e+00
2.000000000000000111e-01	8.197361418448430651e-03	3.576379039721957032e+00
3.000000000000000444e-01	8.190921024253262905e-03	3.575543962496587014e+00
4.000000000000000222e-01	8.185494771950855425e-03	3.575009782546816339e+00
5.000000000000000000e-01	8.180907942642494726e-03	3.574667025479828286e+00
5.999999999999999778e-01	8.177015911412250510e-03	3.574447806520496762e+00
6.999999999999999556e-01	8.173698891651315357e-03	3.574309105308291379e+00
7.999999999999999334e-01	8.170857630702113919e-03	3.574223193564921353e+00
8.999999999999999112e-01	8.168409870536385772e-03	3.574171962314773854e+00
9.999999999999998890e-01	8.166287429549183921e-03	3.574143464682961735e+00
1.099999999999999867e+00	8.164433791860853384e-03	3.574129760344351592e+00
1.199999999999999956e+00	8.162802113131233800e-03	3.574125545970868068e+00
1.300000000000000044e+00	8.161353569272571454e-03	3.574127271236393177e+00
1.400000000000000133e+00	8.160055988094914309e-03	3.574132560573738182e+00
1.500000000000000222e+00	8.158882714793331409e-03	3.574139830617991009e+00
1.600000000000000311e+00	8.157811670945175342e-03	3.574148034654385686e+00
1.700000000000000400e+00	8.156824573793469355e-03	3.574156490499150518e+00
1.800000000000000488e+00	8.155906288392881717e-03	3.574164763772436970e+00
1.900000000000000577e+00	8.155044289947621650e-03	3.574172588288964558e+00
2.000000000000000444e+00	8.154228217577226545e-03	3.574179811523897410e+00
2.100000000000000533e+00	8.153449503965317507e-03	3.574186357139340853e+00
2.200000000000000622e+00	8.152701068003573304e-03	3.574192199190223462e+00
2.300000000000000711e+00	8.151977059740082160e-03	3.574197344367747498e+00
2.400000000000000799e+00	8.151272648759510728e-03	3.574201819798259017e+00
2.500000000000000888e+00	8.150583848629017192e-03	3.574205664694978690e+00
2.600000000000000977e+00	8.149907371292897107e-03	3.574208924688201616e+00
2.700000000000001066e+00	8.149240506335232725e-03	3.574211648019816501e+00
2.800000000000001155e+00	8.148581020889894208e-03	3.574213883035366024e+00
2.900000000000001243e+00	8.147927076691556872e-03	3.574215676577558565e+00
3.000000000000001332e+00	8.147277161354660180e-03	3.574217073003755907e+00
3.100000000000001421e+00	8.146630031460121157e-03	3.574218113632555038e+00
3.200000000000001510e+00	8.145984665439207420e-03	3.574218836482497608e+00
3.300000000000001599e+00	8.145340224584471725e-03	3.574219276206648033e+00
3.400000000000001688e+00	8.144696020800425498e-03	3.574219464155457882e+00
3.500000000000001776e+00	8.144051489941931884e-03	3.574219428520646780e+00
3.600000000000001865e+00	8.143406169783658222e-03	3.574219194527180399e+00
3.700000000000001954e+00	8.142759681826398574e-03	3.574218784650663672e+00
3.800000000000002043e+00	8.142111716281102626e-03	3.574218218844636308e+00
3.900000000000002132e+00	8.141462019683604057e-03	3.574217514767438431e+00
4.000000000000001776e+00	8.140810384686263806e-03	3.574216688001915720e+00
4.100000000000001421e+00	8.140156641650174787e-03	3.574215752263754986e+00
4.200000000000001066e+00	8.139500651725922395e-03	3.574214719596078282e+00
4.300000000000000711e+00	8.138842301164243148e-03	3.574213600549111636e+00
4.400000000000000355e+00	8.138181496642374335e-03	3.574212404344606853e+00
4.500000000000000000e+00	8.137518161428597754e-03	3.574211139025256223e+00
4.599999999999999645e+00	8.136852232238075966e-03	3.574209811589692531e+00
4.699999999999999289e+00	8.136183656658446325e-03	3.574208428113900382e+00
4.799999999999998934e+00	8.135512391044623023e-03	3.574206993859984305e+00
4.899999999999998579e+00	8.134838398799665304e-03	3.574205513373277299e+00
4.999999999999998224e+00	8.134161648973084469e-03	3.574203990568816547e+00
5.099999999999997868e+00	8.133482115119865935e-03	3.574202428808143761e+00
5.199999999999997513e+00	8.132799774373412199e-03	3.574200830967378284e+00
5.299999999999997158e+00	8.132114606693826436e-03	3.574199199497440471e+00
5.399999999999996803e+00	8.131426594259732327e-03	3.574197536477235371e+00
5.499999999999996447e+00	8.130735720977449663e-03	3.574195843660560534e+00
5.599999999999996092e+00	8.130041972085976995e-03	3.574194122517403649e+00
5.699999999999995737e+00	8.129345333840068064e-03	3.574192374270268147e+00
5.799999999999995381e+00	8.128645793256884106e-03	3.574190599926086342e+00
5.899999999999995026e+00	8.127943337914228170e-03	3.574188800304219260e+00
5.999999999999994671e+00	8.127237955790660856e-03	3.574186976060994780e+00
6.099999999999994316e+00	8.126529635139443167e-03	3.574185127711204224e+00
6.199999999999993960e+00	8.125818364389756146e-03	3.574183255646895319e+00
6.299999999999993605e+00	8.125104132069909876e-03	3.574181360153804832e+00
6.399999999999993250e+00	8.124386926748135632e-03	3.574179441425696879e+00
6.499999999999992895e+00	8.123666736987443168e-03	3.574177499576872030e+00
6.599999999999992539e+00	8.122943551311684329e-03	3.574175534653066588e+00
6.699999999999992184e+00	8.122217358180451596e-03	3.574173546640936561e+00
6.799999999999991829e+00	8.121488145970964107e-03	3.574171535476313277e+00
6.899999999999991473e+00	8.120755902965412845e-03	3.574169501051352782e+00
6.999999999999991118e+00	8.120020617342543767e-03	3.574167443220760632e+00
7.099999999999990763e+00	8.119282277172474444e-03	3.574165361807171593e+00
7.199999999999990408e+00	8.118540870414020852e-03	3.574163256605809469e+00
7.299999999999990052e+00	8.117796384913845628e-03	3.574161127388508774e+00
7.399999999999989697e+00	8.117048808406995830e-03	3.574158973907188397e+00
7.499999999999989342e+00	8.116298128518393065e-03	3.574156795896840766e+00
7.599999999999988987e+00	8.115544332765008834e-03	3.574154593078101350e+00
7.699999999999988631e+00	8.114787408558483961e-03	3.574152365159453115e+00
7.799999999999988276e+00	8.114027343207989157e-03	3.574150111839110799e+00
7.899999999999987921e+00	8.113264123923227822e-03	3.574147832806634728e+00
7.999999999999987566e+00	8.112497737817438853e-03	3.574145527744293727e+00
8.099999999999987210e+00	8.111728171910361287e-03	3.574143196328233074e+00
8.199999999999986855e+00	8.110955413131084452e-03	3.574140838229449280e+00
8.299999999999986500e+00	8.110179448320752396e-03	3.574138453114620972e+00
8.399999999999986144e+00	8.109400264235101796e-03	3.574136040646794577e+00
8.499999999999985789e+00	8.108617847546819440e-03	3.574133600485958517e+00
8.599999999999985434e+00	8.107832184847703696e-03	3.574131132289515733e+00
8.699999999999985079e+00	8.107043262650655974e-03	3.574128635712670921e+00
8.799999999999984723e+00	8.106251067391455345e-03	3.574126110408739176e+00
8.899999999999984368e+00	8.105455585430390922e-03	3.574123556029398685e+00
8.999999999999984013e+00	8.104656803053699940e-03	3.574120972224878123e+00
9.099999999999983658e+00	8.103854706474846251e-03	3.574118358644107651e+00
9.199999999999983302e+00	8.103049281835661768e-03	3.574115714934823274e+00
9.299999999999982947e+00	8.102240515207338734e-03	3.574113040743639225e+00
9.399999999999982592e+00	8.101428392591291869e-03	3.574110335716095488e+00
9.499999999999982236e+00	8.100612899919911250e-03	3.574107599496671561e+00
9.599999999999981881e+00	8.099794023057197215e-03	3.574104831728793563e+00
9.699999999999981526e+00	8.098971747799305065e-03	3.574102032054812028e+00
9.799999999999981171e+00	8.098146059874983954e-03	3.574099200115969932e+00
9.899999999999980815e+00	8.097316944945970665e-03	3.574096335552364057e+00
9.999999999999980460e+00	8.096484388607258498e-03	3.574093438002886813e+00
1.000000000000000000e+01	8.096484388607258498e-03	3.574093438002886813e+00
1.009999999999999964e+01	8.095648376387352269e-03	3.574090507105171177e+00
1.019999999999999929e+01	8.094808893748422704e-03	3.574087542495520964e+00
1.029999999999999893e+01	8.093965926086434809e-03	3.574084543808840664e+00
1.039999999999999858e+01	8.093119458731212051e-03	3.574081510678557727e+00
1.049999999999999822e+01	8.092269476946465853e-03	3.574078442736549732e+00
1.059999999999999787e+01	8.091415965929786916e-03	3.574075339613059121e+00
1.069999999999999751e+01	8.090558910812593180e-03	3.574072200936615040e+00
1.079999999999999716e+01	8.089698296660067373e-03	3.574069026333948962e+00
1.089999999999999680e+01	8.088834108471032111e-03	3.574065815429917858e+00
1.099999999999999645e+01	8.087966331177838877e-03	3.574062567847412719e+00
1.109999999999999609e+01	8.087094949646210160e-03	3.574059283207286164e+00
1.119999999999999574e+01	8.086219948675067715e-03	3.574055961128262737e+00
1.129999999999999538e+01	8.085341312996357360e-03	3.574052601226867409e+00
1.139999999999999503e+01	8.084459027274828666e-03	3.574049203117335871e+00
1.149999999999999467e+01	8.083573076107833724e-03	3.574045766411546143e+00
1.159999999999999432e+01	8.082683444025087760e-03	3.574042290718936421e+00
1.169999999999999396e+01	8.081790115488434942e-03	3.574038775646429578e+00
1.179999999999999361e+01	8.080893074891591643e-03	3.574035220798358115e+00
1.189999999999999325e+01	8.079992306559894907e-03	3.574031625776396215e+00
1.199999999999999289e+01	8.079087794750021423e-03	3.574027990179481140e+00
1.209999999999999254e+01	8.078179523649729049e-03	3.574024313603746172e+00
1.219999999999999218e+01	8.077267477377554974e-03	3.574020595642452225e+00
1.229999999999999183e+01	8.076351639982545100e-03	3.574016835885920340e+00
1.239999999999999147e+01	8.075431995443948727e-03	3.574013033921461080e+00
1.249999999999999112e+01	8.074508527670930594e-03	3.574009189333315906e+00
1.259999999999999076e+01	8.073581220502248218e-03	3.574005301702586568e+00
1.269999999999999041e+01	8.072650057705963930e-03	3.574001370607179151e+00
1.279999999999999005e+01	8.071715022979122217e-03	3.573997395621734352e+00
1.289999999999998970e+01	8.070776099947434001e-03	3.573993376317574189e+00
1.299999999999998934e+01	8.069833272164966126e-03	3.573989312262635831e+00
1.309999999999998899e+01	8.068886523113804818e-03	3.573985203021416535e+00
1.319999999999998863e+01	8.067935836203736499e-03	3.573981048154915907e+00
1.329999999999998828e+01	8.066981194771930333e-03	3.573976847220578623e+00
1.339999999999998792e+01	8.066022582082586073e-03	3.573972599772234027e+00
1.349999999999998757e+01	8.065059981326616612e-03	3.573968305360045949e+00
1.359999999999998721e+01	8.064093375621299298e-03	3.573963963530453203e+00
1.369999999999998685e+01	8.063122748009951546e-03	3.573959573826119396e+00
1.379999999999998650e+01	8.062148081461573482e-03	3.573955135785874759e+00
1.389999999999998614e+01	8.061169358870513141e-03	3.573950648944668185e+00
1.399999999999998579e+01	8.060186563056122994e-03	3.573946112833506383e+00
1.409999999999998543e+01	8.059199676762404327e-03	3.573941526979412142e+00
1.419999999999998508e+01	8.058208682657658564e-03	3.573936890905363484e+00
1.429999999999998472e+01	8.057213563334145526e-03	3.573932204130245260e+00
1.439999999999998437e+01	8.056214301307717401e-03	3.573927466168797196e+00
1.449999999999998401e+01	8.055210879017461398e-03	3.573922676531565035e+00
1.459999999999998366e+01	8.054203278825340651e-03	3.573917834724849030e+00
1.469999999999998330e+01	8.053191483015838606e-03	3.573912940250649317e+00
1.479999999999998295e+01	8.052175473795596464e-03	3.573907992606621065e+00
1.489999999999998259e+01	8.051155233293043681e-03	3.573902991286021180e+00
1.499999999999998224e+01	8.050130743558030211e-03	3.573897935777659463e+00
1.509999999999998188e+01	8.049101986561463945e-03	3.573892825565847087e+00
1.519999999999998153e+01	8.048068944194939484e-03	3.573887660130345534e+00
1.529999999999998117e+01	8.047031598270356495e-03	3.573882438946323070e+00
1.539999999999998082e+01	8.045989930519550221e-03	3.573877161484294351e+00
1.549999999999998046e+01	8.044943922593920244e-03	3.573871827210079566e+00
1.559999999999998010e+01	8.043893556064041911e-03	3.573866435584750256e+00
1.569999999999997975e+01	8.042838812419284694e-03	3.573860986064577361e+00
1.579999999999997939e+01	8.041779673067442694e-03	3.573855478100986360e+00
1.589999999999997904e+01	8.040716119334333917e-03	3.573849911140500879e+00
1.599999999999997868e+01	8.039648132463415170e-03	3.573844284624696943e+00
1.609999999999998010e+01	8.038575693615409093e-03	3.573838597990148358e+00
1.619999999999998153e+01	8.037498783867887825e-03	3.573832850668379191e+00
1.629999999999998295e+01	8.036417384214896570e-03	3.573827042085810923e+00
1.639999999999998437e+01	8.035331475566556345e-03	3.573821171663710050e+00
1.649999999999998579e+01	8.034241038748656319e-03	3.573815238818139672e+00
1.659999999999998721e+01	8.033146054502265238e-03	3.573809242959904431e+00
1.669999999999998863e+01	8.032046503483325495e-03	3.573803183494498548e+00
1.679999999999999005e+01	8.030942366262245474e-03	3.573797059822060085e+00
1.689999999999999147e+01	8.029833623323498829e-03	3.573790871337307884e+00
1.699999999999999289e+01	8.028720255065209879e-03	3.573784617429495825e+00
1.709999999999999432e+01	8.027602241798752897e-03	3.573778297482356869e+00
1.719999999999999574e+01	8.026479563748321888e-03	3.573771910874049773e+00
1.729999999999999716e+01	8.025352201050535081e-03	3.573765456977109345e+00
1.739999999999999858e+01	8.024220133754008180e-03	3.573758935158381611e+00
1.750000000000000000e+01	8.023083341818934566e-03	3.573752344778981627e+00
1.760000000000000142e+01	8.021941805116656818e-03	3.573745685194228194e+00
1.770000000000000284e+01	8.020795503429262521e-03	3.573738955753595903e+00
1.780000000000000426e+01	8.019644416449133242e-03	3.573732155800655619e+00
1.790000000000000568e+01	8.018488523778538601e-03	3.573725284673018976e+00
1.800000000000000711e+01	8.017327804929186980e-03	3.573718341702279311e+00
1.810000000000000853e+01	8.016162239321803981e-03	3.573711326213957484e+00
1.820000000000000995e+01	8.014991806285693549e-03	3.573704237527446370e+00
1.830000000000001137e+01	8.013816485058292138e-03	3.573697074955945574e+00
1.840000000000001279e+01	8.012636254784743714e-03	3.573689837806409919e+00
1.850000000000001421e+01	8.011451094517445248e-03	3.573682525379485941e+00
1.860000000000001563e+01	8.010260983215604369e-03	3.573675136969456823e+00
1.870000000000001705e+01	8.009065899744788330e-03	3.573667671864177109e+00
1.880000000000001847e+01	8.007865822876483394e-03	3.573660129345014536e+00
1.890000000000001990e+01	8.006660731287635127e-03	3.573652508686794071e+00
1.900000000000002132e+01	8.005450603560195638e-03	3.573644809157725089e+00
1.910000000000002274e+01	8.004235418180662143e-03	3.573637030019350291e+00
1.920000000000002416e+01	8.003015153539622464e-03	3.573629170526476884e+00
1.930000000000002558e+01	8.001789787931288395e-03	3.573621229927116616e+00
1.940000000000002700e+01	8.000559299553039461e-03	3.573613207462419616e+00
1.950000000000002842e+01	7.999323666504938937e-03	3.573605102366610442e+00
1.960000000000002984e+01	7.998082866789279349e-03	3.573596913866927682e+00
1.970000000000003126e+01	7.996836878310101954e-03	3.573588641183550685e+00
1.980000000000003268e+01	7.995585678872723159e-03	3.573580283529538271e+00
1.990000000000003411e+01	7.994329246183257479e-03	3.573571840110764342e+00
2.000000000000000000e+01	7.993067557848137009e-03	3.573563310125845049e+00
2.010000000000000142e+01	7.991800591373623974e-03	3.573554692766076180e+00
2.020000000000000284e+01	7.990528324165326740e-03	3.573545987215359432e+00
2.030000000000000426e+01	7.989250733527724496e-03	3.573537192650137584e+00
2.040000000000000568e+01	7.987967796663645106e-03	3.573528308239325213e+00
2.050000000000000711e+01	7.986679490673807141e-03	3.573519333144233645e+00
2.060000000000000853e+01	7.985385792556297727e-03	3.573510266518503897e+00
2.070000000000000995e+01	7.984086679206085085e-03	3.573501107508034735e+00
2.080000000000001137e+01	7.982782127414506795e-03	3.573491855250907179e+00
2.090000000000001279e+01	7.981472113868777127e-03	3.573482508877314778e+00
2.100000000000001421e+01	7.980156615151470095e-03	3.573473067509490786e+00
2.110000000000001563e+01	7.978835607740007718e-03	3.573463530261628662e+00
2.120000000000001705e+01	7.977509068006155210e-03	3.573453896239811911e+00
2.130000000000001847e+01	7.976176972215493627e-03	3.573444164541935031e+00
2.140000000000001990e+01	7.974839296526913326e-03	3.573434334257630240e+00
2.150000000000002132e+01	7.973496016992077939e-03	3.573424404468185323e+00
2.160000000000002274e+01	7.972147109554905686e-03	3.573414374246470793e+00
2.170000000000002416e+01	7.970792550051045491e-03	3.573404242656858187e+00
2.180000000000002558e+01	7.969432314207340953e-03	3.573394008755140572e+00
2.190000000000002700e+01	7.968066377641289111e-03	3.573383671588454380e+00
2.200000000000002842e+01	7.966694715860521761e-03	3.573373230195193706e+00
2.210000000000002984e+01	7.965317304262246878e-03	3.573362683604935697e+00
2.220000000000003126e+01	7.963934118132719522e-03	3.573352030838349958e+00
2.230000000000003268e+01	7.962545132646679791e-03	3.573341270907121281e+00
2.240000000000003411e+01	7.961150322866823725e-03	3.573330402813862161e+00
2.250000000000003553e+01	7.959749663743227385e-03	3.573319425552029749e+00
2.260000000000003695e+01	7.958343130112816022e-03	3.573308338105837478e+00
2.270000000000003837e+01	7.956930696698786415e-03	3.573297139450168469e+00
2.280000000000003979e+01	7.955512338110050027e-03	3.573285828550493815e+00
2.290000000000004121e+01	7.954088028840672689e-03	3.573274404362775769e+00
2.300000000000004263e+01	7.952657743269300403e-03	3.573262865833383373e+00
2.310000000000004405e+01	7.951221455658592091e-03	3.573251211899003188e+00
2.320000000000004547e+01	7.949779140154641932e-03	3.573239441486541601e+00
2.330000000000004690e+01	7.948330770786399962e-03	3.573227553513044441e+00
2.340000000000004832e+01	7.946876321465092680e-03	3.573215546885591731e+00
2.350000000000004974e+01	7.945415765983641909e-03	3.573203420501213756e+00
2.360000000000005116e+01	7.943949078016071530e-03	3.573191173246788921e+00
2.370000000000005258e+01	7.942476231116929811e-03	3.573178803998954489e+00
2.380000000000005400e+01	7.940997198720670114e-03	3.573166311624007108e+00
2.390000000000005542e+01	7.939511954141062824e-03	3.573153694977804218e+00
2.400000000000005684e+01	7.938020470570591666e-03	3.573140952905669465e+00
2.410000000000005826e+01	7.936522721079860426e-03	3.573128084242290559e+00
2.420000000000005969e+01	7.935018678616977128e-03	3.573115087811618018e+00
2.430000000000006111e+01	7.933508316006933000e-03	3.573101962426766143e+00
2.440000000000006253e+01	7.931991605950984917e-03	3.573088706889909538e+00
2.450000000000006395e+01	7.930468521026049974e-03	3.573075319992179644e+00
2.460000000000006537e+01	7.928939033684074059e-03	3.573061800513561259e+00
2.470000000000006679e+01	7.927403116251407339e-03	3.573048147222786852e+00
2.480000000000006821e+01	7.925860740928169362e-03	3.573034358877228200e+00
2.490000000000006963e+01	7.924311879787626287e-03	3.573020434222794250e+00
2.500000000000007105e+01	7.922756504775543829e-03	3.573006371993815211e+00
2.510000000000007248e+01	7.921194587709555826e-03	3.572992170912940857e+00
2.520000000000007390e+01	7.919626100278513714e-03	3.572977829691022400e+00
2.530000000000007532e+01	7.918051014041820393e-03	3.572963347027006353e+00
2.540000000000007674e+01	7.916469300428798789e-03	3.572948721607815514e+00
2.550000000000007816e+01	7.914880930738020515e-03	3.572933952108243716e+00
2.560000000000007958e+01	7.913285876136657085e-03	3.572919037190830593e+00
2.570000000000008100e+01	7.911684107659808576e-03	3.572903975505755891e+00
2.580000000000008242e+01	7.910075596209839230e-03	3.572888765690711566e+00
2.590000000000008384e+01	7.908460312555706112e-03	3.572873406370789873e+00
2.600000000000008527e+01	7.906838227332272165e-03	3.572857896158362578e+00
2.610000000000008669e+01	7.905209311039640072e-03	3.572842233652957500e+00
2.620000000000008811e+01	7.903573534042461837e-03	3.572826417441139490e+00
2.630000000000008953e+01	7.901930866569250103e-03	3.572810446096381654e+00
2.640000000000009095e+01	7.900281278711679053e-03	3.572794318178949435e+00
