# time	fraction	energy
0.000000000000000000e+00	1.996694358557953540e-03	1.096582103080947661e+02
4.000000000000000083e-02	1.996293371083758018e-03	1.394875225574008368e+02
8.000000000000000167e-02	1.995724006658982762e-03	1.366019760720216141e+02
1.199999999999999956e-01	1.995069235063123836e-03	1.344309249693296238e+02
1.600000000000000033e-01	1.994376969596210140e-03	1.327209516801383415e+02
2.000000000000000111e-01	1.993675757505631013e-03	1.313264029018993710e+02
2.400000000000000189e-01	1.992982946788543746e-03	1.301583186465585413e+02
2.800000000000000266e-01	1.992309151841018759e-03	1.291592584744496435e+02
3.200000000000000067e-01	1.991660803482726665e-03	1.282902420225088633e+02
3.599999999999999867e-01	1.991041662260963335e-03	1.275236481881031949e+02
3.999999999999999667e-01	1.990453747909058137e-03	1.268391777316989391e+02
4.399999999999999467e-01	1.989897928040537233e-03	1.262214563955565296e+02
4.799999999999999267e-01	1.989374301466039982e-03	1.256585514440578777e+02
5.199999999999999067e-01	1.988882454112696208e-03	1.251410164670292318e+02
5.599999999999999423e-01	1.988421633843921125e-03	1.246612532769900099e+02
5.999999999999999778e-01	1.987990872423151326e-03	1.242130711564695815e+02
6.400000000000000133e-01	1.987589072268131259e-03	1.237913732492702934e+02
6.800000000000000488e-01	1.987215069254528836e-03	1.233919275518040166e+02
7.200000000000000844e-01	1.986867678885172704e-03	1.230111958799383132e+02
7.600000000000001199e-01	1.986545730658280558e-03	1.226462036301143002e+02
8.000000000000001554e-01	1.986248093877621308e-03	1.222944389266656628e+02
8.400000000000001910e-01	1.985973697114126659e-03	1.219537733808737983e+02
8.800000000000002265e-01	1.985721542848484233e-03	1.216223990365984804e+02
9.200000000000002620e-01	1.985490718371161513e-03	1.212987776328714205e+02
9.600000000000002975e-01	1.985280403710591723e-03	1.209815993655323183e+02
1.000000000000000222e+00	1.985089877151249849e-03	1.206697490550316587e+02
1.040000000000000258e+00	1.984918518758894794e-03	1.203622781380287137e+02
1.080000000000000293e+00	1.984765812230122450e-03	1.200583812693094643e+02
1.120000000000000329e+00	1.984631345314479857e-03	1.197573765956752112e+02
1.160000000000000364e+00	1.984514809011235763e-03	1.194586889756532884e+02
1.200000000000000400e+00	1.984415995713177932e-03	1.191618355869394748e+02
1.240000000000000435e+00	1.984334796451542229e-03	1.188664134977681073e+02
1.280000000000000471e+00	1.984271197384765342e-03	1.185720888839139775e+02
1.320000000000000506e+00	1.984225275665473572e-03	1.182785876520557338e+02
1.360000000000000542e+00	1.984197194811606994e-03	1.179856872845326023e+02
1.400000000000000577e+00	1.984187199696817779e-03	1.176932097528916472e+02
1.440000000000000613e+00	1.984195611261435795e-03	1.174010153625445696e+02
1.480000000000000648e+00	1.984222821028844199e-03	1.171089973944221470e+02
1.520000000000000684e+00	1.984269285494764858e-03	1.168170774086883057e+02
1.560000000000000719e+00	1.984335520441052065e-03	1.165252010770368543e+02
1.600000000000000755e+00	1.984422095213646004e-03	1.162333344191500828e+02
1.640000000000000790e+00	1.984529626998485750e-03	1.159414603385845766e+02
1.680000000000000826e+00	1.984658775130378541e-03	1.156495753839787426e+02
1.720000000000000862e+00	1.984810235478081091e-03	1.153576867006455586e+02
1.760000000000000897e+00	1.984984734962530039e-03	1.150658091806575101e+02
1.800000000000000933e+00	1.985183026281445943e-03	1.147739628603405464e+02
1.840000000000000968e+00	1.985405882928935675e-03	1.144821706461836328e+02
1.880000000000001004e+00	1.985654094609290779e-03	1.141904564678201837e+02
1.920000000000001039e+00	1.985928463146501271e-03	1.138988439561422013e+02
1.960000000000001075e+00	1.986229798982595308e-03	1.136073557246839130e+02
2.000000000000000888e+00	1.986558918337937626e-03	1.133160132952393155e+02
2.040000000000000924e+00	1.986916641075923712e-03	1.130248376593197435e+02
2.080000000000000959e+00	1.987303789275689670e-03	1.127338504128089767e+02
2.120000000000000995e+00	1.987721186473534983e-03	1.124430753503464473e+02
2.160000000000001030e+00	1.988169657491418215e-03	1.121525403663883935e+02
2.200000000000001066e+00	1.988650028733832380e-03	1.118622794874775082e+02
2.240000000000001101e+00	1.989163128806478460e-03	1.115723348578599285e+02
2.280000000000001137e+00	1.989709789293890325e-03	1.112827585175085403e+02
2.320000000000001172e+00	1.990290845529146292e-03	1.109936138437132769e+02
2.360000000000001208e+00	1.990907137195955211e-03	1.107049765679572886e+02
2.400000000000001243e+00	1.991559508619131572e-03	1.104169353209663456e+02
2.440000000000001279e+00	1.992248808620346746e-03	1.101295916932547811e+02
2.480000000000001315e+00	1.992975889838720632e-03	1.098430598209929769e+02
2.520000000000001350e+00	1.993741607437510711e-03	1.095574655156021748e+02
2.560000000000001386e+00	1.994546817137476426e-03	1.092729449517815681e+02
2.600000000000001421e+00	1.995392372534507928e-03	1.089896429174424810e+02
2.640000000000001457e+00	1.996279121675165712e-03	1.087077106169757030e+02
2.680000000000001492e+00	1.997207902881315261e-03	1.084273030134440603e+02
2.720000000000001528e+00	1.998179539836475102e-03	1.081485757013870739e+02
2.760000000000001563e+00	1.999194835973925211e-03	1.078716813230427078e+02
2.800000000000001599e+00	2.000254568240881353e-03	1.075967655766812072e+02
2.840000000000001634e+00	2.001359480353282188e-03	1.073239629127704973e+02
2.880000000000001670e+00	2.002510275699670873e-03	1.070533920654566487e+02
2.920000000000001705e+00	2.003707610096176674e-03	1.067851516152620661e+02
2.960000000000001741e+00	2.004952084632942097e-03	1.065193158155690156e+02
3.000000000000001776e+00	2.006244238880225406e-03	1.062559309330659403e+02
3.040000000000001812e+00	2.007584544735233675e-03	1.059950123459206566e+02
3.080000000000001847e+00	2.008973401185057666e-03	1.057365426112754250e+02
3.120000000000001883e+00	2.010411130235445834e-03	1.054804706576144753e+02
3.160000000000001918e+00	2.011897974210247967e-03	1.052267121829610375e+02
3.200000000000001954e+00	2.013434094565054282e-03	1.049751512547265975e+02
3.240000000000001990e+00	2.015019572285769826e-03	1.047256430209296383e+02
3.280000000000002025e+00	2.016654409864655339e-03	1.044780173651398059e+02
3.320000000000002061e+00	2.018338534769533940e-03	1.042320832773300481e+02
3.360000000000002096e+00	2.020071804252716527e-03	1.039876336758350703e+02
3.400000000000002132e+00	2.021854011290091270e-03	1.037444504045570142e+02
3.440000000000002167e+00	2.023684891401398862e-03	1.035023091436100628e+02
3.480000000000002203e+00	2.025564130081485611e-03	1.032609840066532456e+02
3.520000000000002238e+00	2.027491370568857906e-03	1.030202516476233683e+02
3.560000000000002274e+00	2.029466221689839398e-03	1.027798947555182565e+02
3.600000000000002309e+00	2.031488265540559723e-03	1.025397048704289489e+02
3.640000000000002345e+00	2.033557064800742969e-03	1.022994845006926994e+02
3.680000000000002380e+00	2.035672169508926949e-03	1.020590485557605405e+02
3.720000000000002416e+00	2.037833123164976227e-03	1.018182251309513902e+02
3.760000000000002451e+00	2.040039468060606768e-03	1.015768556903134652e+02
3.800000000000002487e+00	2.042290749771006556e-03	1.013347946960074211e+02
3.840000000000002522e+00	2.044586520770734408e-03	1.010919087316454892e+02
3.880000000000002558e+00	2.046926343165585485e-03	1.008480751673088918e+02
3.920000000000002593e+00	2.049309790559990328e-03	1.006031804186917498e+02
3.960000000000002629e+00	2.051736449107380809e-03	1.003571178632663106e+02
4.000000000000000000e+00	2.054205917818910637e-03	1.001097854918199772e+02
4.040000000000000036e+00	2.056717808233365224e-03	9.986108339185889804e+01
4.080000000000000071e+00	2.059271743576715930e-03	9.961091117699183428e+01
4.120000000000000107e+00	2.061867357561963324e-03	9.935916549017518662e+01
4.160000000000000142e+00	2.064504292996684632e-03	9.910573771584148517e+01
4.200000000000000178e+00	2.067182200375483007e-03	9.885051203461156888e+01
4.240000000000000213e+00	2.069900736635807859e-03	9.859336394372868995e+01
4.280000000000000249e+00	2.072659564247705550e-03	9.833415934671580771e+01
4.320000000000000284e+00	2.075458350790585459e-03	9.807275428799086114e+01
4.360000000000000320e+00	2.078296769143708235e-03	9.780899537382958897e+01
4.400000000000000355e+00	2.081174498382748136e-03	9.754272088221745207e+01
4.440000000000000391e+00	2.084091225434413479e-03	9.727376252331018236e+01
4.480000000000000426e+00	2.087046647496882453e-03	9.700194777234939636e+01
4.520000000000000462e+00	2.090040475188602049e-03	9.672710266106685140e+01
4.560000000000000497e+00	2.093072436344648422e-03	9.644905488489673928e+01
4.600000000000000533e+00	2.096142280341352620e-03	9.616763706428383784e+01
4.640000000000000568e+00	2.099249782798874413e-03	9.588268999083700805e+01
4.680000000000000604e+00	2.102394750489895540e-03	9.559406569379777352e+01
4.720000000000000639e+00	2.105577026272046574e-03	9.530163017889766763e+01
4.760000000000000675e+00	2.108796493862455292e-03	9.500526571869076520e+01
4.800000000000000711e+00	2.112053082284495210e-03	9.470487260845240485e+01
4.840000000000000746e+00	2.115346769838054568e-03	9.440037034157589346e+01
4.880000000000000782e+00	2.118677587473371399e-03	9.409169819945390145e+01
4.920000000000000817e+00	2.122045621481885840e-03	9.377881528926741339e+01
4.960000000000000853e+00	2.125451015452691633e-03	9.346170009521888744e+01
5.000000000000000888e+00	2.128893971476828861e-03	9.314034963134129441e+01
5.040000000000000924e+00	2.132374750611136429e-03	9.281477829485243092e+01
5.080000000000000959e+00	2.135893672636452433e-03	9.248501651723094596e+01
5.120000000000000995e+00	2.139451115160467213e-03	9.215110929660271211e+01
5.160000000000001030e+00	2.143047512123320668e-03	9.181311467223964939e+01
5.200000000000001066e+00	2.146683351765220609e-03	9.147110217410417476e+01
5.240000000000001101e+00	2.150359174111892997e-03	9.112515125250358494e+01
5.280000000000001137e+00	2.154075568028340597e-03	9.077534967023173351e+01
5.320000000000001172e+00	2.157833167887030293e-03	9.042179182649584845e+01
5.360000000000001208e+00	2.161632649895871196e-03	9.006457698132084033e+01
5.400000000000001243e+00	2.165474728136069799e-03	8.970380736183014392e+01
5.440000000000001279e+00	2.169360150370995988e-03	8.933958615653779134e+01
5.480000000000001315e+00	2.173289693704030974e-03	8.897201543737759266e+01
5.520000000000001350e+00	2.177264160184430759e-03	8.860119408707475941e+01
5.560000000000001386e+00	2.181284372482750287e-03	8.822721584623664626e+01
5.600000000000001421e+00	2.185351169777759433e-03	8.785016762456909589e+01
5.640000000000001457e+00	2.189465404011217958e-03	8.747012823855982333e+01
5.680000000000001492e+00	2.193627936671434936e-03	8.708716773927486088e+01
5.720000000000001528e+00	2.197839636257883228e-03	8.670134747543129095e+01
5.760000000000001563e+00	2.202101376555119262e-03	8.631272099743941340e+01
5.800000000000001599e+00	2.206414035804134255e-03	8.592133584893676357e+01
5.840000000000001634e+00	2.210778496804154721e-03	8.552723621754651617e+01
5.880000000000001670e+00	2.215195647911112880e-03	8.513046633296231391e+01
5.920000000000001705e+00	2.219666384825507311e-03	8.473107441686872221e+01
5.960000000000001741e+00	2.224191612988766012e-03	8.432911691558688005e+01
6.000000000000001776e+00	2.228772250340706456e-03	8.392466269228111742e+01
6.040000000000001812e+00	2.233409230138647724e-03	8.351779682892781409e+01
6.080000000000001847e+00	2.238103503507267097e-03	8.310862369393740323e+01
6.120000000000001883e+00	2.242856041381994722e-03	8.269726897053331527e+01
6.160000000000001918e+00	2.247667835529665054e-03	8.228388041100626538e+01
6.200000000000001954e+00	2.252539898377670883e-03	8.186862717644480369e+01
6.240000000000001990e+00	2.257473261453741328e-03	8.145169773129531166e+01
6.280000000000002025e+00	2.262468972326869745e-03	8.103329637615713921e+01
6.320000000000002061e+00	2.267528090038442405e-03	8.061363860907849244e+01
6.360000000000002096e+00	2.272651679112650328e-03	8.019294559460441008e+01
6.400000000000002132e+00	2.277840802328232658e-03	7.977143808228370858e+01
6.440000000000002167e+00	2.283096512511681615e-03	7.934933014664211726e+01
6.480000000000002203e+00	2.288419843669131822e-03	7.892682311680557916e+01
6.520000000000002238e+00	2.293811801806372799e-03	7.850410002789473651e+01
6.560000000000002274e+00	2.299273355792476759e-03	7.808132086343101719e+01
6.600000000000002309e+00	2.304805428603862085e-03	7.765861877650445422e+01
6.640000000000002345e+00	2.310408889245893407e-03	7.723609738725471630e+01
6.680000000000002380e+00	2.316084545593822229e-03	7.681382916560308161e+01
6.720000000000002416e+00	2.321833138330540742e-03	7.639185483047641867e+01
6.760000000000002451e+00	2.327655336091962943e-03	7.597018363718720479e+01
6.800000000000002487e+00	2.333551731867734499e-03	7.554879438735368069e+01
6.840000000000002522e+00	2.339522840650312512e-03	7.512763698150502023e+01
6.880000000000002558e+00	2.345569098282039664e-03	7.470663434080852028e+01
6.920000000000002593e+00	2.351690861418883737e-03	7.428568454608020488e+01
6.960000000000002629e+00	2.357888408510403714e-03	7.386466307287244604e+01
7.000000000000002665e+00	2.364161941686491412e-03	7.344342503436273262e+01
7.040000000000002700e+00	2.370511589440087510e-03	7.302180737355013207e+01
7.080000000000002736e+00	2.376937409998903291e-03	7.259963096954241735e+01
7.120000000000002771e+00	2.383439395286174670e-03	7.217670263856672364e+01
7.160000000000002807e+00	2.390017475379266256e-03	7.175281702005021600e+01
7.200000000000002842e+00	2.396671523384945150e-03	7.132775834443273766e+01
7.240000000000002878e+00	2.403401360661247283e-03	7.090130208544600521e+01
7.280000000000002913e+00	2.410206762328227260e-03	7.047321650791482739e+01
7.320000000000002949e+00	2.417087463023426513e-03	7.004326413373863147e+01
7.360000000000002984e+00	2.424043162872187816e-03	6.961120316283012244e+01
7.400000000000003020e+00	2.431073533656838512e-03	6.917678890004594905e+01
7.440000000000003055e+00	2.438178225180782487e-03	6.873977525022846180e+01
7.480000000000003091e+00	2.445356871831854632e-03	6.829991634806384582e+01
7.520000000000003126e+00	2.452609099352252679e-03	6.785696838514679996e+01
7.560000000000003162e+00	2.459934531818785616e-03	6.741069168260379740e+01
7.600000000000003197e+00	2.467332798826780797e-03	6.696085303487298290e+01
7.640000000000003233e+00	2.474803542854093086e-03	6.650722832135426188e+01
7.680000000000003268e+00	2.482346426759853009e-03	6.604960535120063980e+01
7.720000000000003304e+00	2.489961141347599594e-03	6.558778687630248783e+01
7.760000000000003340e+00	2.497647412896755823e-03	6.512159368178123486e+01
7.800000000000003375e+00	2.505405010542158771e-03	6.465086764431170252e+01
7.840000000000003411e+00	2.513233753360698177e-03	6.417547463739813907e+01
7.880000000000003446e+00	2.521133517008589207e-03	6.369530715934120479e+01
7.920000000000003482e+00	2.529104239743527882e-03	6.321028656330643258e+01
7.960000000000003517e+00	2.537145927663645752e-03	6.272036477854743453e+01
8.000000000000000000e+00	2.545258658999979915e-03	6.222552542634283412e+01
8.039999999999999147e+00	2.553442587311048704e-03	6.172578425261844615e+01
8.079999999999998295e+00	2.561697943446671847e-03	6.122118882080344804e+01
8.119999999999997442e+00	2.570025036172862536e-03	6.071181743253247021e+01
8.159999999999996589e+00	2.578424251379570539e-03	6.019777726962080067e+01
8.199999999999995737e+00	2.586896049827118113e-03	5.967920177731519971e+01
8.239999999999994884e+00	2.595440963424195096e-03	5.915624733494365728e+01
8.279999999999994031e+00	2.604059590068641666e-03	5.862908928435917488e+01
8.319999999999993179e+00	2.612752587120500958e-03	5.809791740765517432e+01
8.359999999999992326e+00	2.621520663613455867e-03	5.756293096250400509e+01
8.399999999999991473e+00	2.630364571344461812e-03	5.702433339565939008e+01
8.439999999999990621e+00	2.639285095011164629e-03	5.648232686282617010e+01
8.479999999999989768e+00	2.648283041591896567e-03	5.593710668693582733e+01
8.519999999999988916e+00	2.657359229183127967e-03	5.538885588788184577e+01
8.559999999999988063e+00	2.666514475524230706e-03	5.483773991591565533e+01
8.599999999999987210e+00	2.675749586448939593e-03	5.428390171875730630e+01
8.639999999999986358e+00	2.685065344506939837e-03	5.372745726903275454e+01
8.679999999999985505e+00	2.694462497997258347e-03	5.316849167330016712e+01
8.719999999999984652e+00	2.703941750647222402e-03	5.260705597562203195e+01
8.759999999999983800e+00	2.713503752156229583e-03	5.204316475617368098e+01
8.799999999999982947e+00	2.723149089802240092e-03	5.147679460773394311e+01
8.839999999999982094e+00	2.732878281280583677e-03	5.090788354954988648e+01
8.879999999999981242e+00	2.742691768909833166e-03	5.033633140919207705e+01
8.919999999999980389e+00	2.752589915298869847e-03	4.976200116961515363e+01
8.959999999999979536e+00	2.762573000524352201e-03	4.918472124248804533e+01
8.999999999999978684e+00	2.772641220820527830e-03	4.860428859237401156e+01
9.039999999999977831e+00	2.782794688736029039e-03	4.802047260231922365e+01
9.079999999999976978e+00	2.793033434667667198e-03	4.743301954266473786e+01
9.119999999999976126e+00	2.803357409641866679e-03	4.684165748388524975e+01
9.159999999999975273e+00	2.813766489182710495e-03	4.624610148269792376e+01
9.199999999999974420e+00	2.824260478083322375e-03	4.564605886928397638e+01
9.239999999999973568e+00	2.834839115885757609e-03	4.504123447179636486e+01
9.279999999999972715e+00	2.845502082873809565e-03	4.443133563091903682e+01
9.319999999999971863e+00	2.856249006392643734e-03	4.381607687983964894e+01
9.359999999999971010e+00	2.867079467327480341e-03	4.319518419094067951e+01
9.399999999999970157e+00	2.877993006598602872e-03	4.256839871719639490e+01
9.439999999999969305e+00	2.888989131559392080e-03	4.193547998149711731e+01
9.479999999999968452e+00	2.900067322215255008e-03	4.129620848939572397e+01
9.519999999999967599e+00	2.911227037211894762e-03	4.065038775938314330e+01
9.559999999999966747e+00	2.922467719569115437e-03	3.999784577975837863e+01
9.599999999999965894e+00	2.933788802159635698e-03	3.933843591305269172e+01
9.639999999999965041e+00	2.945189712950096496e-03	3.867203727867288876e+01
9.679999999999964189e+00	2.956669880032973454e-03	3.799855465285678235e+01
9.719999999999963336e+00	2.968228736483423998e-03	3.731791793289529835e+01
9.759999999999962483e+00	2.979865725074686434e-03	3.663008122020126223e+01
9.799999999999961631e+00	2.991580302880280078e-03	3.593502158408280422e+01
9.839999999999960778e+00	3.003371945782026819e-03	3.523273757448544075e+01
9.879999999999959925e+00	3.015240152890981320e-03	3.452324755665996037e+01
9.919999999999959073e+00	3.027184450875025721e-03	3.380658794272449086e+01
9.959999999999958220e+00	3.039204398173121855e-03	3.308281139351913680e+01
9.999999999999957367e+00	3.051299589063103789e-03	3.235198505836250149e+01
1.003999999999995651e+01	3.063469657538071388e-03	3.161418891011020449e+01
1.007999999999995566e+01	3.075714280936438835e-03	3.086951421859487610e+01
1.011999999999995481e+01	3.088033183262861928e-03	3.011806218795194923e+01
1.015999999999995396e+01	3.100426138131738996e-03	2.935994276383284074e+01
1.019999999999995310e+01	3.112892971261977011e-03	2.859527359676981462e+01
1.023999999999995225e+01	3.125433562451305960e-03	2.782417912985439301e+01
1.027999999999995140e+01	3.138047846960910405e-03	2.704678976427251058e+01
1.031999999999995055e+01	3.150735816246677881e-03	2.626324104673888371e+01
1.035999999999994969e+01	3.163497517982402554e-03	2.547367281971543207e+01
1.039999999999994884e+01	3.176333055332884910e-03	2.467822827908910455e+01
1.043999999999994799e+01	3.189242585451205862e-03	2.387705289463620772e+01
1.047999999999994714e+01	3.202226317194252058e-03	2.307029316516073791e+01
1.051999999999994628e+01	3.215284508073084583e-03	2.225809520090393789e+01
1.055999999999994543e+01	3.228417460478856787e-03	2.144060314820643143e+01
1.059999999999994458e+01	3.241625517249139068e-03	2.061795749249422016e+01
